/////////////////////////////////////////////////////////////////////////////////
/// Profile Data Ascii Dump (XRD)                                             ///
/////////////////////////////////////////////////////////////////////////////////

  Group     : Standard
  Data      : nmo-f
  File Name : nmo-f.RAW

# Profile Datafile
          comment             =  
          date & time         = 26-01-19 13:20:18 

# Measurement Condition
    X-ray tube
          target              = Cu 
          voltage             = 40.0 (kV)
          current             = 30.0 (mA)
    Slits
          divergence slit     = 1.00000 (deg) 
          scatter slit        = 1.00000 (deg) 
          receiving slit      = 0.30000 (mm)  
    Scanning
          drive axis          = Theta-2Theta 
          scan range          =   10.000 -   70.000 
          scan mode           = Continuous Scan 
          scan speed          =   3.0000 (deg/min) 
          sampling pitch      =   0.0200 (deg) 
          preset time         =   0.40 (sec) 

# Data      [ Total No. = 3001 ]
  <2Theta>   <   I   >
    10.0000       326
    10.0200       298
    10.0400       302
    10.0600       328
    10.0800       338
    10.1000       308
    10.1200       318
    10.1400       322
    10.1600       346
    10.1800       310
    10.2000       266
    10.2200       288
    10.2400       286
    10.2600       274
    10.2800       272
    10.3000       266
    10.3200       276
    10.3400       294
    10.3600       288
    10.3800       244
    10.4000       264
    10.4200       244
    10.4400       284
    10.4600       240
    10.4800       252
    10.5000       252
    10.5200       288
    10.5400       258
    10.5600       290
    10.5800       256
    10.6000       282
    10.6200       252
    10.6400       266
    10.6600       276
    10.6800       286
    10.7000       260
    10.7200       224
    10.7400       266
    10.7600       206
    10.7800       220
    10.8000       246
    10.8200       280
    10.8400       220
    10.8600       258
    10.8800       232
    10.9000       246
    10.9200       230
    10.9400       278
    10.9600       238
    10.9800       228
    11.0000       240
    11.0200       202
    11.0400       234
    11.0600       268
    11.0800       246
    11.1000       238
    11.1200       250
    11.1400       272
    11.1600       240
    11.1800       270
    11.2000       236
    11.2200       218
    11.2400       224
    11.2600       234
    11.2800       246
    11.3000       244
    11.3200       202
    11.3400       216
    11.3600       222
    11.3800       238
    11.4000       190
    11.4200       248
    11.4400       232
    11.4600       248
    11.4800       202
    11.5000       202
    11.5200       234
    11.5400       228
    11.5600       238
    11.5800       254
    11.6000       196
    11.6200       214
    11.6400       258
    11.6600       196
    11.6800       242
    11.7000       228
    11.7200       216
    11.7400       230
    11.7600       226
    11.7800       210
    11.8000       208
    11.8200       210
    11.8400       230
    11.8600       244
    11.8800       252
    11.9000       228
    11.9200       234
    11.9400       240
    11.9600       184
    11.9800       214
    12.0000       220
    12.0200       232
    12.0400       240
    12.0600       218
    12.0800       248
    12.1000       204
    12.1200       228
    12.1400       210
    12.1600       200
    12.1800       222
    12.2000       238
    12.2200       202
    12.2400       210
    12.2600       210
    12.2800       246
    12.3000       216
    12.3200       236
    12.3400       204
    12.3600       236
    12.3800       210
    12.4000       216
    12.4200       244
    12.4400       232
    12.4600       212
    12.4800       206
    12.5000       212
    12.5200       236
    12.5400       222
    12.5600       200
    12.5800       214
    12.6000       206
    12.6200       232
    12.6400       236
    12.6600       238
    12.6800       222
    12.7000       214
    12.7200       216
    12.7400       238
    12.7600       194
    12.7800       212
    12.8000       240
    12.8200       212
    12.8400       238
    12.8600       230
    12.8800       214
    12.9000       242
    12.9200       232
    12.9400       218
    12.9600       246
    12.9800       234
    13.0000       234
    13.0200       208
    13.0400       208
    13.0600       226
    13.0800       178
    13.1000       202
    13.1200       226
    13.1400       204
    13.1600       218
    13.1800       218
    13.2000       212
    13.2200       190
    13.2400       196
    13.2600       194
    13.2800       192
    13.3000       212
    13.3200       212
    13.3400       198
    13.3600       210
    13.3800       212
    13.4000       214
    13.4200       228
    13.4400       212
    13.4600       210
    13.4800       214
    13.5000       208
    13.5200       210
    13.5400       208
    13.5600       218
    13.5800       218
    13.6000       200
    13.6200       208
    13.6400       232
    13.6600       170
    13.6800       208
    13.7000       182
    13.7200       188
    13.7400       184
    13.7600       214
    13.7800       220
    13.8000       230
    13.8200       212
    13.8400       196
    13.8600       212
    13.8800       206
    13.9000       234
    13.9200       208
    13.9400       192
    13.9600       208
    13.9800       212
    14.0000       196
    14.0200       194
    14.0400       204
    14.0600       216
    14.0800       204
    14.1000       208
    14.1200       206
    14.1400       202
    14.1600       200
    14.1800       210
    14.2000       214
    14.2200       198
    14.2400       232
    14.2600       218
    14.2800       176
    14.3000       208
    14.3200       184
    14.3400       184
    14.3600       198
    14.3800       224
    14.4000       188
    14.4200       214
    14.4400       210
    14.4600       196
    14.4800       200
    14.5000       212
    14.5200       190
    14.5400       210
    14.5600       192
    14.5800       214
    14.6000       206
    14.6200       210
    14.6400       226
    14.6600       188
    14.6800       202
    14.7000       220
    14.7200       174
    14.7400       200
    14.7600       214
    14.7800       210
    14.8000       210
    14.8200       206
    14.8400       200
    14.8600       194
    14.8800       220
    14.9000       246
    14.9200       228
    14.9400       180
    14.9600       218
    14.9800       196
    15.0000       218
    15.0200       202
    15.0400       208
    15.0600       188
    15.0800       224
    15.1000       232
    15.1200       194
    15.1400       218
    15.1600       188
    15.1800       214
    15.2000       216
    15.2200       194
    15.2400       208
    15.2600       196
    15.2800       182
    15.3000       178
    15.3200       184
    15.3400       240
    15.3600       206
    15.3800       196
    15.4000       200
    15.4200       232
    15.4400       192
    15.4600       180
    15.4800       182
    15.5000       212
    15.5200       196
    15.5400       238
    15.5600       192
    15.5800       208
    15.6000       222
    15.6200       190
    15.6400       202
    15.6600       194
    15.6800       186
    15.7000       194
    15.7200       202
    15.7400       224
    15.7600       188
    15.7800       222
    15.8000       208
    15.8200       214
    15.8400       218
    15.8600       200
    15.8800       216
    15.9000       202
    15.9200       216
    15.9400       220
    15.9600       240
    15.9800       204
    16.0000       206
    16.0200       202
    16.0400       224
    16.0600       204
    16.0800       178
    16.1000       180
    16.1200       210
    16.1400       182
    16.1600       218
    16.1800       224
    16.2000       216
    16.2200       206
    16.2400       218
    16.2600       186
    16.2800       194
    16.3000       214
    16.3200       200
    16.3400       194
    16.3600       212
    16.3800       194
    16.4000       212
    16.4200       206
    16.4400       204
    16.4600       186
    16.4800       234
    16.5000       212
    16.5200       192
    16.5400       222
    16.5600       218
    16.5800       220
    16.6000       218
    16.6200       200
    16.6400       188
    16.6600       216
    16.6800       180
    16.7000       226
    16.7200       220
    16.7400       228
    16.7600       202
    16.7800       206
    16.8000       230
    16.8200       234
    16.8400       200
    16.8600       196
    16.8800       258
    16.9000       226
    16.9200       226
    16.9400       228
    16.9600       226
    16.9800       204
    17.0000       188
    17.0200       196
    17.0400       202
    17.0600       194
    17.0800       218
    17.1000       238
    17.1200       190
    17.1400       212
    17.1600       202
    17.1800       182
    17.2000       222
    17.2200       240
    17.2400       198
    17.2600       204
    17.2800       220
    17.3000       216
    17.3200       186
    17.3400       210
    17.3600       220
    17.3800       214
    17.4000       220
    17.4200       198
    17.4400       206
    17.4600       222
    17.4800       192
    17.5000       224
    17.5200       216
    17.5400       226
    17.5600       212
    17.5800       214
    17.6000       222
    17.6200       198
    17.6400       218
    17.6600       178
    17.6800       220
    17.7000       202
    17.7200       210
    17.7400       222
    17.7600       230
    17.7800       216
    17.8000       200
    17.8200       198
    17.8400       240
    17.8600       254
    17.8800       190
    17.9000       200
    17.9200       226
    17.9400       206
    17.9600       208
    17.9800       204
    18.0000       200
    18.0200       198
    18.0400       212
    18.0600       212
    18.0800       248
    18.1000       222
    18.1200       210
    18.1400       238
    18.1600       234
    18.1800       214
    18.2000       212
    18.2200       236
    18.2400       208
    18.2600       204
    18.2800       212
    18.3000       220
    18.3200       214
    18.3400       198
    18.3600       190
    18.3800       220
    18.4000       238
    18.4200       194
    18.4400       220
    18.4600       216
    18.4800       214
    18.5000       198
    18.5200       208
    18.5400       212
    18.5600       218
    18.5800       212
    18.6000       200
    18.6200       208
    18.6400       222
    18.6600       214
    18.6800       222
    18.7000       212
    18.7200       206
    18.7400       188
    18.7600       208
    18.7800       224
    18.8000       208
    18.8200       198
    18.8400       244
    18.8600       240
    18.8800       208
    18.9000       206
    18.9200       238
    18.9400       244
    18.9600       218
    18.9800       224
    19.0000       212
    19.0200       220
    19.0400       214
    19.0600       198
    19.0800       210
    19.1000       212
    19.1200       228
    19.1400       236
    19.1600       228
    19.1800       222
    19.2000       238
    19.2200       224
    19.2400       226
    19.2600       216
    19.2800       222
    19.3000       216
    19.3200       250
    19.3400       204
    19.3600       228
    19.3800       260
    19.4000       214
    19.4200       204
    19.4400       202
    19.4600       190
    19.4800       212
    19.5000       252
    19.5200       254
    19.5400       218
    19.5600       206
    19.5800       246
    19.6000       222
    19.6200       230
    19.6400       214
    19.6600       222
    19.6800       244
    19.7000       220
    19.7200       226
    19.7400       242
    19.7600       196
    19.7800       222
    19.8000       238
    19.8200       232
    19.8400       216
    19.8600       240
    19.8800       228
    19.9000       212
    19.9200       208
    19.9400       226
    19.9600       230
    19.9800       220
    20.0000       226
    20.0200       248
    20.0400       244
    20.0600       242
    20.0800       200
    20.1000       234
    20.1200       216
    20.1400       200
    20.1600       212
    20.1800       236
    20.2000       228
    20.2200       228
    20.2400       226
    20.2600       222
    20.2800       224
    20.3000       218
    20.3200       212
    20.3400       234
    20.3600       232
    20.3800       232
    20.4000       224
    20.4200       220
    20.4400       244
    20.4600       216
    20.4800       248
    20.5000       236
    20.5200       232
    20.5400       230
    20.5600       220
    20.5800       214
    20.6000       224
    20.6200       240
    20.6400       222
    20.6600       238
    20.6800       242
    20.7000       208
    20.7200       220
    20.7400       236
    20.7600       238
    20.7800       192
    20.8000       218
    20.8200       230
    20.8400       242
    20.8600       214
    20.8800       232
    20.9000       242
    20.9200       228
    20.9400       228
    20.9600       204
    20.9800       218
    21.0000       254
    21.0200       224
    21.0400       216
    21.0600       254
    21.0800       250
    21.1000       252
    21.1200       240
    21.1400       232
    21.1600       238
    21.1800       234
    21.2000       206
    21.2200       242
    21.2400       248
    21.2600       224
    21.2800       250
    21.3000       250
    21.3200       220
    21.3400       232
    21.3600       258
    21.3800       242
    21.4000       226
    21.4200       216
    21.4400       260
    21.4600       222
    21.4800       254
    21.5000       236
    21.5200       256
    21.5400       232
    21.5600       202
    21.5800       204
    21.6000       206
    21.6200       260
    21.6400       274
    21.6600       246
    21.6800       250
    21.7000       220
    21.7200       244
    21.7400       240
    21.7600       248
    21.7800       218
    21.8000       262
    21.8200       244
    21.8400       230
    21.8600       206
    21.8800       248
    21.9000       240
    21.9200       218
    21.9400       236
    21.9600       228
    21.9800       228
    22.0000       226
    22.0200       220
    22.0400       254
    22.0600       236
    22.0800       228
    22.1000       250
    22.1200       220
    22.1400       222
    22.1600       232
    22.1800       226
    22.2000       248
    22.2200       228
    22.2400       234
    22.2600       228
    22.2800       220
    22.3000       222
    22.3200       228
    22.3400       238
    22.3600       256
    22.3800       218
    22.4000       240
    22.4200       224
    22.4400       210
    22.4600       208
    22.4800       240
    22.5000       244
    22.5200       230
    22.5400       242
    22.5600       260
    22.5800       244
    22.6000       256
    22.6200       232
    22.6400       228
    22.6600       214
    22.6800       218
    22.7000       232
    22.7200       270
    22.7400       282
    22.7600       234
    22.7800       258
    22.8000       256
    22.8200       202
    22.8400       246
    22.8600       216
    22.8800       252
    22.9000       246
    22.9200       210
    22.9400       228
    22.9600       252
    22.9800       242
    23.0000       210
    23.0200       224
    23.0400       216
    23.0600       236
    23.0800       254
    23.1000       256
    23.1200       238
    23.1400       222
    23.1600       232
    23.1800       222
    23.2000       246
    23.2200       238
    23.2400       228
    23.2600       228
    23.2800       260
    23.3000       254
    23.3200       244
    23.3400       206
    23.3600       236
    23.3800       220
    23.4000       242
    23.4200       226
    23.4400       258
    23.4600       226
    23.4800       236
    23.5000       238
    23.5200       236
    23.5400       218
    23.5600       222
    23.5800       262
    23.6000       254
    23.6200       232
    23.6400       250
    23.6600       236
    23.6800       230
    23.7000       250
    23.7200       226
    23.7400       232
    23.7600       236
    23.7800       238
    23.8000       228
    23.8200       216
    23.8400       222
    23.8600       234
    23.8800       232
    23.9000       226
    23.9200       226
    23.9400       214
    23.9600       230
    23.9800       226
    24.0000       254
    24.0200       236
    24.0400       236
    24.0600       208
    24.0800       218
    24.1000       224
    24.1200       224
    24.1400       218
    24.1600       234
    24.1800       222
    24.2000       242
    24.2200       230
    24.2400       240
    24.2600       220
    24.2800       204
    24.3000       212
    24.3200       236
    24.3400       244
    24.3600       218
    24.3800       232
    24.4000       246
    24.4200       262
    24.4400       234
    24.4600       214
    24.4800       226
    24.5000       222
    24.5200       230
    24.5400       216
    24.5600       218
    24.5800       246
    24.6000       238
    24.6200       228
    24.6400       228
    24.6600       218
    24.6800       222
    24.7000       212
    24.7200       244
    24.7400       240
    24.7600       242
    24.7800       228
    24.8000       222
    24.8200       246
    24.8400       194
    24.8600       226
    24.8800       228
    24.9000       230
    24.9200       230
    24.9400       258
    24.9600       262
    24.9800       272
    25.0000       214
    25.0200       224
    25.0400       204
    25.0600       238
    25.0800       228
    25.1000       224
    25.1200       232
    25.1400       222
    25.1600       226
    25.1800       226
    25.2000       230
    25.2200       224
    25.2400       224
    25.2600       262
    25.2800       226
    25.3000       234
    25.3200       226
    25.3400       228
    25.3600       234
    25.3800       230
    25.4000       244
    25.4200       216
    25.4400       190
    25.4600       230
    25.4800       238
    25.5000       222
    25.5200       214
    25.5400       216
    25.5600       252
    25.5800       202
    25.6000       224
    25.6200       200
    25.6400       234
    25.6600       232
    25.6800       242
    25.7000       244
    25.7200       220
    25.7400       210
    25.7600       216
    25.7800       220
    25.8000       216
    25.8200       256
    25.8400       242
    25.8600       206
    25.8800       256
    25.9000       194
    25.9200       226
    25.9400       244
    25.9600       236
    25.9800       206
    26.0000       222
    26.0200       238
    26.0400       206
    26.0600       234
    26.0800       244
    26.1000       222
    26.1200       248
    26.1400       220
    26.1600       212
    26.1800       222
    26.2000       214
    26.2200       240
    26.2400       196
    26.2600       226
    26.2800       224
    26.3000       220
    26.3200       220
    26.3400       238
    26.3600       230
    26.3800       224
    26.4000       240
    26.4200       224
    26.4400       218
    26.4600       198
    26.4800       196
    26.5000       212
    26.5200       238
    26.5400       224
    26.5600       224
    26.5800       248
    26.6000       222
    26.6200       238
    26.6400       228
    26.6600       206
    26.6800       242
    26.7000       210
    26.7200       204
    26.7400       222
    26.7600       232
    26.7800       220
    26.8000       192
    26.8200       200
    26.8400       220
    26.8600       226
    26.8800       222
    26.9000       226
    26.9200       232
    26.9400       226
    26.9600       212
    26.9800       218
    27.0000       200
    27.0200       234
    27.0400       214
    27.0600       214
    27.0800       214
    27.1000       220
    27.1200       246
    27.1400       218
    27.1600       222
    27.1800       208
    27.2000       234
    27.2200       196
    27.2400       218
    27.2600       194
    27.2800       200
    27.3000       220
    27.3200       216
    27.3400       196
    27.3600       206
    27.3800       206
    27.4000       226
    27.4200       206
    27.4400       208
    27.4600       210
    27.4800       226
    27.5000       210
    27.5200       232
    27.5400       234
    27.5600       226
    27.5800       218
    27.6000       220
    27.6200       198
    27.6400       212
    27.6600       200
    27.6800       206
    27.7000       228
    27.7200       236
    27.7400       234
    27.7600       184
    27.7800       194
    27.8000       230
    27.8200       190
    27.8400       226
    27.8600       218
    27.8800       202
    27.9000       196
    27.9200       216
    27.9400       228
    27.9600       230
    27.9800       196
    28.0000       190
    28.0200       222
    28.0400       188
    28.0600       206
    28.0800       206
    28.1000       204
    28.1200       200
    28.1400       202
    28.1600       218
    28.1800       200
    28.2000       224
    28.2200       204
    28.2400       192
    28.2600       220
    28.2800       204
    28.3000       218
    28.3200       188
    28.3400       204
    28.3600       226
    28.3800       208
    28.4000       178
    28.4200       192
    28.4400       204
    28.4600       188
    28.4800       188
    28.5000       228
    28.5200       192
    28.5400       196
    28.5600       186
    28.5800       226
    28.6000       206
    28.6200       210
    28.6400       216
    28.6600       200
    28.6800       196
    28.7000       196
    28.7200       236
    28.7400       216
    28.7600       198
    28.7800       234
    28.8000       226
    28.8200       226
    28.8400       204
    28.8600       190
    28.8800       200
    28.9000       210
    28.9200       196
    28.9400       204
    28.9600       210
    28.9800       196
    29.0000       210
    29.0200       192
    29.0400       208
    29.0600       186
    29.0800       170
    29.1000       184
    29.1200       202
    29.1400       212
    29.1600       206
    29.1800       194
    29.2000       246
    29.2200       198
    29.2400       196
    29.2600       190
    29.2800       190
    29.3000       206
    29.3200       204
    29.3400       192
    29.3600       178
    29.3800       182
    29.4000       202
    29.4200       224
    29.4400       190
    29.4600       164
    29.4800       196
    29.5000       210
    29.5200       194
    29.5400       184
    29.5600       214
    29.5800       204
    29.6000       170
    29.6200       200
    29.6400       200
    29.6600       194
    29.6800       180
    29.7000       214
    29.7200       192
    29.7400       208
    29.7600       206
    29.7800       190
    29.8000       194
    29.8200       212
    29.8400       188
    29.8600       214
    29.8800       192
    29.9000       188
    29.9200       186
    29.9400       216
    29.9600       220
    29.9800       188
    30.0000       210
    30.0200       212
    30.0400       180
    30.0600       196
    30.0800       220
    30.1000       214
    30.1200       184
    30.1400       190
    30.1600       212
    30.1800       188
    30.2000       204
    30.2200       180
    30.2400       182
    30.2600       192
    30.2800       208
    30.3000       196
    30.3200       196
    30.3400       178
    30.3600       216
    30.3800       210
    30.4000       218
    30.4200       168
    30.4400       200
    30.4600       182
    30.4800       162
    30.5000       210
    30.5200       216
    30.5400       198
    30.5600       200
    30.5800       164
    30.6000       206
    30.6200       196
    30.6400       204
    30.6600       182
    30.6800       188
    30.7000       202
    30.7200       192
    30.7400       176
    30.7600       198
    30.7800       174
    30.8000       198
    30.8200       180
    30.8400       206
    30.8600       208
    30.8800       150
    30.9000       182
    30.9200       188
    30.9400       200
    30.9600       186
    30.9800       204
    31.0000       170
    31.0200       180
    31.0400       168
    31.0600       178
    31.0800       186
    31.1000       172
    31.1200       204
    31.1400       196
    31.1600       182
    31.1800       182
    31.2000       200
    31.2200       200
    31.2400       188
    31.2600       164
    31.2800       196
    31.3000       170
    31.3200       194
    31.3400       204
    31.3600       158
    31.3800       206
    31.4000       172
    31.4200       200
    31.4400       178
    31.4600       190
    31.4800       218
    31.5000       176
    31.5200       204
    31.5400       174
    31.5600       206
    31.5800       188
    31.6000       180
    31.6200       192
    31.6400       168
    31.6600       162
    31.6800       192
    31.7000       176
    31.7200       202
    31.7400       180
    31.7600       196
    31.7800       198
    31.8000       160
    31.8200       192
    31.8400       196
    31.8600       182
    31.8800       176
    31.9000       172
    31.9200       158
    31.9400       176
    31.9600       176
    31.9800       194
    32.0000       180
    32.0200       158
    32.0400       172
    32.0600       186
    32.0800       178
    32.1000       164
    32.1200       160
    32.1400       176
    32.1600       186
    32.1800       156
    32.2000       190
    32.2200       184
    32.2400       200
    32.2600       172
    32.2800       184
    32.3000       178
    32.3200       166
    32.3400       188
    32.3600       182
    32.3800       188
    32.4000       184
    32.4200       174
    32.4400       182
    32.4600       168
    32.4800       214
    32.5000       180
    32.5200       182
    32.5400       168
    32.5600       164
    32.5800       198
    32.6000       164
    32.6200       174
    32.6400       170
    32.6600       178
    32.6800       176
    32.7000       162
    32.7200       182
    32.7400       166
    32.7600       162
    32.7800       152
    32.8000       214
    32.8200       172
    32.8400       158
    32.8600       160
    32.8800       168
    32.9000       156
    32.9200       188
    32.9400       196
    32.9600       168
    32.9800       190
    33.0000       176
    33.0200       184
    33.0400       178
    33.0600       202
    33.0800       182
    33.1000       210
    33.1200       196
    33.1400       194
    33.1600       170
    33.1800       176
    33.2000       200
    33.2200       188
    33.2400       176
    33.2600       172
    33.2800       174
    33.3000       158
    33.3200       164
    33.3400       152
    33.3600       168
    33.3800       200
    33.4000       182
    33.4200       166
    33.4400       178
    33.4600       170
    33.4800       170
    33.5000       160
    33.5200       172
    33.5400       168
    33.5600       160
    33.5800       148
    33.6000       150
    33.6200       164
    33.6400       158
    33.6600       164
    33.6800       162
    33.7000       140
    33.7200       162
    33.7400       190
    33.7600       166
    33.7800       168
    33.8000       208
    33.8200       144
    33.8400       168
    33.8600       172
    33.8800       172
    33.9000       160
    33.9200       144
    33.9400       176
    33.9600       168
    33.9800       170
    34.0000       170
    34.0200       180
    34.0400       152
    34.0600       162
    34.0800       156
    34.1000       184
    34.1200       166
    34.1400       160
    34.1600       170
    34.1800       172
    34.2000       158
    34.2200       138
    34.2400       140
    34.2600       146
    34.2800       150
    34.3000       164
    34.3200       146
    34.3400       150
    34.3600       140
    34.3800       160
    34.4000       166
    34.4200       158
    34.4400       150
    34.4600       150
    34.4800       130
    34.5000       164
    34.5200       156
    34.5400       142
    34.5600       170
    34.5800       158
    34.6000       146
    34.6200       138
    34.6400       146
    34.6600       146
    34.6800       178
    34.7000       168
    34.7200       158
    34.7400       166
    34.7600       140
    34.7800       164
    34.8000       150
    34.8200       174
    34.8400       168
    34.8600       156
    34.8800       148
    34.9000       156
    34.9200       168
    34.9400       160
    34.9600       154
    34.9800       146
    35.0000       144
    35.0200       150
    35.0400       170
    35.0600       172
    35.0800       150
    35.1000       178
    35.1200       156
    35.1400       142
    35.1600       168
    35.1800       174
    35.2000       142
    35.2200       182
    35.2400       146
    35.2600       164
    35.2800       152
    35.3000       158
    35.3200       148
    35.3400       146
    35.3600       140
    35.3800       146
    35.4000       160
    35.4200       144
    35.4400       134
    35.4600       126
    35.4800       140
    35.5000       150
    35.5200       174
    35.5400       156
    35.5600       150
    35.5800       148
    35.6000       164
    35.6200       128
    35.6400       146
    35.6600       160
    35.6800       146
    35.7000       150
    35.7200       150
    35.7400       144
    35.7600       142
    35.7800       146
    35.8000       142
    35.8200       152
    35.8400       130
    35.8600       132
    35.8800       184
    35.9000       144
    35.9200       140
    35.9400       172
    35.9600       150
    35.9800       144
    36.0000       138
    36.0200       144
    36.0400       140
    36.0600       158
    36.0800       146
    36.1000       140
    36.1200       152
    36.1400       166
    36.1600       150
    36.1800       152
    36.2000       136
    36.2200       152
    36.2400       160
    36.2600       142
    36.2800       142
    36.3000       118
    36.3200       154
    36.3400       146
    36.3600       142
    36.3800       164
    36.4000       162
    36.4200       144
    36.4400       134
    36.4600       178
    36.4800       144
    36.5000       158
    36.5200       188
    36.5400       142
    36.5600       144
    36.5800       148
    36.6000       146
    36.6200       160
    36.6400       154
    36.6600       140
    36.6800       152
    36.7000       144
    36.7200       140
    36.7400       138
    36.7600       130
    36.7800       160
    36.8000       154
    36.8200       152
    36.8400       168
    36.8600       146
    36.8800       154
    36.9000       142
    36.9200       140
    36.9400       152
    36.9600       164
    36.9800       162
    37.0000       142
    37.0200       154
    37.0400       176
    37.0600       136
    37.0800       158
    37.1000       132
    37.1200       146
    37.1400       128
    37.1600       156
    37.1800       136
    37.2000       146
    37.2200       132
    37.2400       154
    37.2600       162
    37.2800       160
    37.3000       146
    37.3200       162
    37.3400       168
    37.3600       138
    37.3800       138
    37.4000       140
    37.4200       140
    37.4400       156
    37.4600       158
    37.4800       142
    37.5000       148
    37.5200       148
    37.5400       136
    37.5600       148
    37.5800       140
    37.6000       146
    37.6200       136
    37.6400       160
    37.6600       142
    37.6800       120
    37.7000       144
    37.7200       128
    37.7400       150
    37.7600       154
    37.7800       116
    37.8000       146
    37.8200       136
    37.8400       144
    37.8600       148
    37.8800       134
    37.9000       136
    37.9200       152
    37.9400       128
    37.9600       158
    37.9800       152
    38.0000       138
    38.0200       122
    38.0400       136
    38.0600       132
    38.0800       146
    38.1000       112
    38.1200       118
    38.1400       136
    38.1600       164
    38.1800       136
    38.2000       146
    38.2200       156
    38.2400       142
    38.2600       106
    38.2800       138
    38.3000       132
    38.3200       136
    38.3400       148
    38.3600       146
    38.3800       134
    38.4000       138
    38.4200       172
    38.4400       138
    38.4600       166
    38.4800       156
    38.5000       154
    38.5200       144
    38.5400       182
    38.5600       132
    38.5800       136
    38.6000       174
    38.6200       160
    38.6400       142
    38.6600       136
    38.6800       130
    38.7000       160
    38.7200       144
    38.7400       160
    38.7600       150
    38.7800       138
    38.8000       146
    38.8200       138
    38.8400       136
    38.8600       160
    38.8800       136
    38.9000       158
    38.9200       170
    38.9400       126
    38.9600       136
    38.9800       132
    39.0000       140
    39.0200       140
    39.0400       148
    39.0600       144
    39.0800       132
    39.1000       156
    39.1200       140
    39.1400       128
    39.1600       126
    39.1800       138
    39.2000       148
    39.2200       140
    39.2400       146
    39.2600       138
    39.2800       144
    39.3000       134
    39.3200       122
    39.3400       168
    39.3600       148
    39.3800       138
    39.4000       140
    39.4200       120
    39.4400       146
    39.4600       156
    39.4800       148
    39.5000       130
    39.5200       134
    39.5400       112
    39.5600       132
    39.5800       124
    39.6000       148
    39.6200       102
    39.6400       156
    39.6600       130
    39.6800       158
    39.7000       144
    39.7200       154
    39.7400       118
    39.7600       128
    39.7800       152
    39.8000       128
    39.8200       150
    39.8400       142
    39.8600       138
    39.8800       144
    39.9000       132
    39.9200       136
    39.9400       132
    39.9600       136
    39.9800       136
    40.0000       126
    40.0200       148
    40.0400       148
    40.0600       132
    40.0800       136
    40.1000       152
    40.1200       140
    40.1400       156
    40.1600       138
    40.1800       150
    40.2000       142
    40.2200       132
    40.2400       128
    40.2600       130
    40.2800       130
    40.3000       126
    40.3200       114
    40.3400       162
    40.3600       124
    40.3800       142
    40.4000       138
    40.4200       152
    40.4400       134
    40.4600       124
    40.4800       122
    40.5000       154
    40.5200       124
    40.5400       118
    40.5600       158
    40.5800       128
    40.6000       128
    40.6200       130
    40.6400       130
    40.6600       140
    40.6800       140
    40.7000       142
    40.7200       134
    40.7400       136
    40.7600       128
    40.7800       134
    40.8000       132
    40.8200       144
    40.8400       150
    40.8600       128
    40.8800       132
    40.9000       110
    40.9200       150
    40.9400       134
    40.9600       164
    40.9800       134
    41.0000       132
    41.0200       144
    41.0400       138
    41.0600       144
    41.0800       124
    41.1000       130
    41.1200       134
    41.1400       152
    41.1600       152
    41.1800       140
    41.2000       140
    41.2200       146
    41.2400       146
    41.2600       140
    41.2800       118
    41.3000       158
    41.3200       138
    41.3400       128
    41.3600       136
    41.3800       122
    41.4000       152
    41.4200       134
    41.4400       146
    41.4600       128
    41.4800       118
    41.5000       126
    41.5200       142
    41.5400       144
    41.5600       146
    41.5800       130
    41.6000       136
    41.6200       122
    41.6400       150
    41.6600       138
    41.6800       136
    41.7000       150
    41.7200       140
    41.7400       130
    41.7600       150
    41.7800       126
    41.8000       138
    41.8200       116
    41.8400       148
    41.8600       136
    41.8800       124
    41.9000       128
    41.9200       136
    41.9400       124
    41.9600       148
    41.9800       126
    42.0000       114
    42.0200       138
    42.0400       144
    42.0600       146
    42.0800       144
    42.1000       144
    42.1200       114
    42.1400       142
    42.1600       130
    42.1800       138
    42.2000       150
    42.2200       134
    42.2400       142
    42.2600       146
    42.2800       130
    42.3000       136
    42.3200       140
    42.3400       122
    42.3600       130
    42.3800       144
    42.4000       142
    42.4200       136
    42.4400       146
    42.4600       116
    42.4800       146
    42.5000       132
    42.5200       134
    42.5400       118
    42.5600       128
    42.5800       140
    42.6000       124
    42.6200       154
    42.6400       136
    42.6600       124
    42.6800       120
    42.7000       126
    42.7200       144
    42.7400       138
    42.7600       108
    42.7800       108
    42.8000       158
    42.8200       146
    42.8400       132
    42.8600       146
    42.8800       144
    42.9000       126
    42.9200       136
    42.9400       146
    42.9600       154
    42.9800       142
    43.0000       142
    43.0200       136
    43.0400       156
    43.0600       144
    43.0800       122
    43.1000       150
    43.1200       150
    43.1400       134
    43.1600       130
    43.1800       146
    43.2000       150
    43.2200       146
    43.2400       130
    43.2600       130
    43.2800       164
    43.3000       142
    43.3200       150
    43.3400       120
    43.3600       144
    43.3800       152
    43.4000       144
    43.4200       146
    43.4400       158
    43.4600       134
    43.4800       132
    43.5000       140
    43.5200       138
    43.5400       162
    43.5600       146
    43.5800       150
    43.6000       120
    43.6200       148
    43.6400       162
    43.6600       130
    43.6800       144
    43.7000       160
    43.7200       134
    43.7400       126
    43.7600       124
    43.7800       136
    43.8000       150
    43.8200       132
    43.8400       128
    43.8600       120
    43.8800       142
    43.9000       158
    43.9200       146
    43.9400       176
    43.9600       140
    43.9800       126
    44.0000       128
    44.0200       156
    44.0400       150
    44.0600       148
    44.0800       150
    44.1000       144
    44.1200       144
    44.1400       170
    44.1600       146
    44.1800       150
    44.2000       176
    44.2200       164
    44.2400       164
    44.2600       180
    44.2800       176
    44.3000       228
    44.3200       296
    44.3400       240
    44.3600       318
    44.3800       398
    44.4000       442
    44.4200       548
    44.4400       632
    44.4600       786
    44.4800       904
    44.5000      1116
    44.5200      1242
    44.5400      1346
    44.5600      1324
    44.5800      1252
    44.6000      1232
    44.6200      1076
    44.6400       942
    44.6600       886
    44.6800       780
    44.7000       676
    44.7200       564
    44.7400       408
    44.7600       324
    44.7800       232
    44.8000       250
    44.8200       194
    44.8400       156
    44.8600       164
    44.8800       160
    44.9000       160
    44.9200       158
    44.9400       156
    44.9600       142
    44.9800       166
    45.0000       160
    45.0200       144
    45.0400       144
    45.0600       168
    45.0800       138
    45.1000       120
    45.1200       136
    45.1400       136
    45.1600       130
    45.1800       140
    45.2000       134
    45.2200       134
    45.2400       122
    45.2600       128
    45.2800       138
    45.3000       116
    45.3200       136
    45.3400       134
    45.3600       148
    45.3800       144
    45.4000       126
    45.4200       146
    45.4400       136
    45.4600       124
    45.4800       140
    45.5000       134
    45.5200       116
    45.5400       126
    45.5600       136
    45.5800       130
    45.6000       138
    45.6200       122
    45.6400       128
    45.6600       136
    45.6800       142
    45.7000       128
    45.7200       134
    45.7400       138
    45.7600       142
    45.7800       170
    45.8000       140
    45.8200       138
    45.8400       126
    45.8600       136
    45.8800       142
    45.9000       154
    45.9200       140
    45.9400       122
    45.9600       142
    45.9800       142
    46.0000       122
    46.0200       144
    46.0400       140
    46.0600       126
    46.0800       138
    46.1000       118
    46.1200       132
    46.1400       156
    46.1600       140
    46.1800       144
    46.2000       118
    46.2200       136
    46.2400       124
    46.2600       128
    46.2800       126
    46.3000       146
    46.3200       106
    46.3400       132
    46.3600       124
    46.3800       118
    46.4000       134
    46.4200       140
    46.4400       136
    46.4600       146
    46.4800       152
    46.5000       128
    46.5200       134
    46.5400       124
    46.5600       146
    46.5800       154
    46.6000       116
    46.6200       140
    46.6400       146
    46.6600       130
    46.6800       136
    46.7000       140
    46.7200       128
    46.7400       122
    46.7600       128
    46.7800       134
    46.8000       158
    46.8200       132
    46.8400       142
    46.8600       116
    46.8800       132
    46.9000       138
    46.9200       140
    46.9400       132
    46.9600       146
    46.9800       134
    47.0000       128
    47.0200       124
    47.0400       144
    47.0600       140
    47.0800       142
    47.1000       138
    47.1200       124
    47.1400       146
    47.1600       128
    47.1800       158
    47.2000       116
    47.2200       116
    47.2400       150
    47.2600       126
    47.2800       116
    47.3000       132
    47.3200       124
    47.3400       128
    47.3600       128
    47.3800       130
    47.4000       116
    47.4200       140
    47.4400       128
    47.4600       116
    47.4800       146
    47.5000       146
    47.5200       138
    47.5400       130
    47.5600       150
    47.5800       116
    47.6000       150
    47.6200       142
    47.6400       134
    47.6600       130
    47.6800       128
    47.7000       148
    47.7200       144
    47.7400       132
    47.7600       122
    47.7800       142
    47.8000       136
    47.8200       130
    47.8400       126
    47.8600       134
    47.8800       148
    47.9000       116
    47.9200       114
    47.9400       144
    47.9600       128
    47.9800       128
    48.0000       116
    48.0200       114
    48.0400       132
    48.0600       114
    48.0800       140
    48.1000       132
    48.1200       136
    48.1400       122
    48.1600       158
    48.1800       134
    48.2000       130
    48.2200       104
    48.2400       102
    48.2600       138
    48.2800       136
    48.3000       134
    48.3200       116
    48.3400       130
    48.3600       138
    48.3800       134
    48.4000       120
    48.4200       116
    48.4400       154
    48.4600       136
    48.4800       144
    48.5000       134
    48.5200       124
    48.5400       124
    48.5600       134
    48.5800       140
    48.6000       124
    48.6200       136
    48.6400       148
    48.6600       136
    48.6800       136
    48.7000       144
    48.7200       134
    48.7400       136
    48.7600       148
    48.7800       110
    48.8000       164
    48.8200       118
    48.8400       128
    48.8600       134
    48.8800       118
    48.9000       138
    48.9200       142
    48.9400       136
    48.9600       146
    48.9800       150
    49.0000       122
    49.0200       156
    49.0400       146
    49.0600       130
    49.0800       144
    49.1000       124
    49.1200       140
    49.1400       134
    49.1600       134
    49.1800       110
    49.2000       144
    49.2200       148
    49.2400       130
    49.2600       156
    49.2800       124
    49.3000       136
    49.3200       126
    49.3400       146
    49.3600       138
    49.3800       132
    49.4000       130
    49.4200       122
    49.4400       108
    49.4600       112
    49.4800       118
    49.5000       120
    49.5200       116
    49.5400       124
    49.5600       116
    49.5800       138
    49.6000       134
    49.6200       132
    49.6400       124
    49.6600       134
    49.6800       140
    49.7000       140
    49.7200       138
    49.7400       134
    49.7600       130
    49.7800       130
    49.8000       132
    49.8200       144
    49.8400       128
    49.8600       150
    49.8800       118
    49.9000       134
    49.9200       134
    49.9400       124
    49.9600       148
    49.9800       138
    50.0000       136
    50.0200       142
    50.0400       138
    50.0600       144
    50.0800       134
    50.1000       128
    50.1200       126
    50.1400       132
    50.1600       142
    50.1800       130
    50.2000       140
    50.2200       112
    50.2400       128
    50.2600       116
    50.2800       146
    50.3000       116
    50.3200       130
    50.3400       108
    50.3600       130
    50.3800       120
    50.4000       122
    50.4200       118
    50.4400       132
    50.4600       130
    50.4800       120
    50.5000       120
    50.5200       130
    50.5400       142
    50.5600       128
    50.5800       130
    50.6000       136
    50.6200       120
    50.6400       136
    50.6600       130
    50.6800       130
    50.7000       122
    50.7200       140
    50.7400       126
    50.7600       140
    50.7800       118
    50.8000       136
    50.8200       134
    50.8400       136
    50.8600       142
    50.8800       122
    50.9000       132
    50.9200       138
    50.9400       142
    50.9600       130
    50.9800       114
    51.0000       124
    51.0200       144
    51.0400       126
    51.0600       132
    51.0800       146
    51.1000       128
    51.1200       148
    51.1400       140
    51.1600       122
    51.1800       134
    51.2000       136
    51.2200       134
    51.2400       130
    51.2600       148
    51.2800       134
    51.3000       132
    51.3200       138
    51.3400       112
    51.3600       144
    51.3800       128
    51.4000       128
    51.4200       152
    51.4400       152
    51.4600       170
    51.4800       128
    51.5000       146
    51.5200       154
    51.5400       138
    51.5600       148
    51.5800       142
    51.6000       170
    51.6200       186
    51.6400       182
    51.6600       196
    51.6800       228
    51.7000       196
    51.7200       236
    51.7400       288
    51.7600       336
    51.7800       358
    51.8000       420
    51.8200       460
    51.8400       504
    51.8600       604
    51.8800       642
    51.9000       620
    51.9200       638
    51.9400       622
    51.9600       532
    51.9800       510
    52.0000       478
    52.0200       488
    52.0400       404
    52.0600       400
    52.0800       354
    52.1000       284
    52.1200       288
    52.1400       214
    52.1600       198
    52.1800       198
    52.2000       188
    52.2200       200
    52.2400       170
    52.2600       164
    52.2800       144
    52.3000       144
    52.3200       124
    52.3400       148
    52.3600       136
    52.3800       124
    52.4000       128
    52.4200       162
    52.4400       158
    52.4600       144
    52.4800       124
    52.5000       144
    52.5200       144
    52.5400       128
    52.5600       152
    52.5800       124
    52.6000       154
    52.6200       128
    52.6400       126
    52.6600       144
    52.6800       122
    52.7000       142
    52.7200       134
    52.7400       138
    52.7600       116
    52.7800       138
    52.8000       124
    52.8200       142
    52.8400       150
    52.8600       124
    52.8800       116
    52.9000       134
    52.9200       116
    52.9400       130
    52.9600       136
    52.9800       136
    53.0000       120
    53.0200       148
    53.0400       144
    53.0600       104
    53.0800       126
    53.1000       114
    53.1200       136
    53.1400       156
    53.1600       110
    53.1800       140
    53.2000       134
    53.2200       136
    53.2400       148
    53.2600       126
    53.2800       150
    53.3000       134
    53.3200       108
    53.3400       128
    53.3600       132
    53.3800       134
    53.4000       142
    53.4200       114
    53.4400       108
    53.4600       124
    53.4800       112
    53.5000       126
    53.5200       170
    53.5400       140
    53.5600       112
    53.5800       118
    53.6000       154
    53.6200       130
    53.6400       124
    53.6600       128
    53.6800       138
    53.7000       124
    53.7200       124
    53.7400       138
    53.7600       136
    53.7800       132
    53.8000       128
    53.8200       140
    53.8400       116
    53.8600       108
    53.8800       140
    53.9000       118
    53.9200       128
    53.9400       124
    53.9600       144
    53.9800       118
    54.0000       130
    54.0200       116
    54.0400       136
    54.0600       130
    54.0800       128
    54.1000       128
    54.1200       132
    54.1400       142
    54.1600       124
    54.1800       126
    54.2000       136
    54.2200       136
    54.2400       154
    54.2600       132
    54.2800       102
    54.3000       126
    54.3200       114
    54.3400       114
    54.3600       130
    54.3800       136
    54.4000       112
    54.4200       150
    54.4400       142
    54.4600       120
    54.4800       108
    54.5000       128
    54.5200       122
    54.5400       124
    54.5600       128
    54.5800       138
    54.6000       148
    54.6200       122
    54.6400       140
    54.6600       126
    54.6800       132
    54.7000       136
    54.7200       140
    54.7400       140
    54.7600       122
    54.7800       156
    54.8000       116
    54.8200       136
    54.8400       122
    54.8600       114
    54.8800       158
    54.9000       152
    54.9200       120
    54.9400       126
    54.9600       126
    54.9800       130
    55.0000       120
    55.0200       144
    55.0400       144
    55.0600       126
    55.0800       124
    55.1000       118
    55.1200       130
    55.1400       136
    55.1600       122
    55.1800       134
    55.2000       112
    55.2200       134
    55.2400       146
    55.2600       130
    55.2800       132
    55.3000       136
    55.3200       136
    55.3400       152
    55.3600       132
    55.3800       138
    55.4000       130
    55.4200       128
    55.4400       120
    55.4600       126
    55.4800       126
    55.5000       120
    55.5200       108
    55.5400       138
    55.5600       120
    55.5800       126
    55.6000       146
    55.6200       122
    55.6400       128
    55.6600       138
    55.6800       116
    55.7000       132
    55.7200       142
    55.7400       104
    55.7600       128
    55.7800        96
    55.8000       140
    55.8200       110
    55.8400       132
    55.8600       130
    55.8800       136
    55.9000       126
    55.9200       120
    55.9400       128
    55.9600       138
    55.9800       144
    56.0000       118
    56.0200       128
    56.0400       140
    56.0600       150
    56.0800       146
    56.1000       106
    56.1200       144
    56.1400       132
    56.1600       126
    56.1800       136
    56.2000       112
    56.2200       146
    56.2400       142
    56.2600       134
    56.2800       140
    56.3000       134
    56.3200       116
    56.3400       150
    56.3600       126
    56.3800       150
    56.4000       134
    56.4200       136
    56.4400       142
    56.4600       122
    56.4800       126
    56.5000       132
    56.5200       130
    56.5400       146
    56.5600       132
    56.5800       126
    56.6000       118
    56.6200       124
    56.6400       146
    56.6600       110
    56.6800       126
    56.7000       132
    56.7200       136
    56.7400       118
    56.7600       134
    56.7800       152
    56.8000       150
    56.8200       132
    56.8400       134
    56.8600       124
    56.8800       152
    56.9000       132
    56.9200       108
    56.9400       128
    56.9600       140
    56.9800       118
    57.0000       136
    57.0200       110
    57.0400       148
    57.0600       140
    57.0800       124
    57.1000       138
    57.1200       148
    57.1400       118
    57.1600       116
    57.1800       132
    57.2000       114
    57.2200       110
    57.2400       142
    57.2600       122
    57.2800       162
    57.3000       138
    57.3200       138
    57.3400       124
    57.3600       142
    57.3800       132
    57.4000       128
    57.4200       126
    57.4400       118
    57.4600       132
    57.4800       150
    57.5000       134
    57.5200       154
    57.5400       120
    57.5600       132
    57.5800       120
    57.6000       150
    57.6200       126
    57.6400       124
    57.6600       142
    57.6800       136
    57.7000       142
    57.7200       138
    57.7400       138
    57.7600       140
    57.7800       120
    57.8000       120
    57.8200       124
    57.8400       122
    57.8600       146
    57.8800       126
    57.9000       126
    57.9200       124
    57.9400       144
    57.9600       142
    57.9800       134
    58.0000       130
    58.0200       128
    58.0400       126
    58.0600       150
    58.0800       128
    58.1000       144
    58.1200       136
    58.1400       132
    58.1600       146
    58.1800       134
    58.2000       122
    58.2200       136
    58.2400       144
    58.2600       132
    58.2800       130
    58.3000       140
    58.3200       114
    58.3400       124
    58.3600       126
    58.3800       138
    58.4000       172
    58.4200       128
    58.4400       128
    58.4600       126
    58.4800       120
    58.5000       116
    58.5200       132
    58.5400       140
    58.5600       132
    58.5800       140
    58.6000       140
    58.6200       120
    58.6400       120
    58.6600       126
    58.6800       146
    58.7000       130
    58.7200       150
    58.7400       126
    58.7600       120
    58.7800       128
    58.8000       134
    58.8200       150
    58.8400       128
    58.8600       154
    58.8800       132
    58.9000       126
    58.9200       134
    58.9400       134
    58.9600       130
    58.9800       142
    59.0000       136
    59.0200       126
    59.0400       130
    59.0600       136
    59.0800       134
    59.1000       132
    59.1200       142
    59.1400       170
    59.1600       122
    59.1800       116
    59.2000       126
    59.2200       142
    59.2400       160
    59.2600       156
    59.2800       136
    59.3000       136
    59.3200       124
    59.3400       150
    59.3600       126
    59.3800       140
    59.4000       146
    59.4200       124
    59.4400       116
    59.4600       144
    59.4800       150
    59.5000       114
    59.5200       138
    59.5400       130
    59.5600       132
    59.5800       130
    59.6000       130
    59.6200       154
    59.6400       154
    59.6600       152
    59.6800       112
    59.7000       114
    59.7200       138
    59.7400       152
    59.7600       132
    59.7800       142
    59.8000       126
    59.8200       136
    59.8400       132
    59.8600       122
    59.8800       138
    59.9000       112
    59.9200       130
    59.9400       122
    59.9600       120
    59.9800       140
    60.0000       144
    60.0200       124
    60.0400       124
    60.0600       130
    60.0800       138
    60.1000       134
    60.1200       140
    60.1400       122
    60.1600       116
    60.1800       144
    60.2000       116
    60.2200       120
    60.2400       144
    60.2600       134
    60.2800       140
    60.3000       128
    60.3200       120
    60.3400       128
    60.3600       136
    60.3800       142
    60.4000       130
    60.4200       154
    60.4400       138
    60.4600       144
    60.4800       128
    60.5000       150
    60.5200       146
    60.5400       126
    60.5600       134
    60.5800       114
    60.6000       124
    60.6200       146
    60.6400       152
    60.6600       132
    60.6800       140
    60.7000       112
    60.7200       142
    60.7400       130
    60.7600       138
    60.7800       112
    60.8000       138
    60.8200       134
    60.8400       146
    60.8600       144
    60.8800       122
    60.9000       128
    60.9200       142
    60.9400       154
    60.9600       124
    60.9800       124
    61.0000       108
    61.0200       124
    61.0400       152
    61.0600       138
    61.0800       130
    61.1000       146
    61.1200       132
    61.1400       146
    61.1600       118
    61.1800       128
    61.2000       132
    61.2200       142
    61.2400       148
    61.2600       130
    61.2800       120
    61.3000       128
    61.3200       148
    61.3400       138
    61.3600       138
    61.3800       148
    61.4000       130
    61.4200       130
    61.4400       130
    61.4600       124
    61.4800       152
    61.5000       124
    61.5200       138
    61.5400       140
    61.5600       154
    61.5800       110
    61.6000       136
    61.6200       116
    61.6400       146
    61.6600       138
    61.6800       148
    61.7000       140
    61.7200       124
    61.7400       134
    61.7600       148
    61.7800       148
    61.8000       124
    61.8200       142
    61.8400       140
    61.8600       128
    61.8800       150
    61.9000       146
    61.9200       132
    61.9400       126
    61.9600       132
    61.9800       118
    62.0000       122
    62.0200       134
    62.0400       118
    62.0600       126
    62.0800       134
    62.1000       138
    62.1200       142
    62.1400       156
    62.1600       160
    62.1800       148
    62.2000       140
    62.2200       126
    62.2400       136
    62.2600       144
    62.2800       148
    62.3000       120
    62.3200       116
    62.3400       136
    62.3600       136
    62.3800       134
    62.4000       158
    62.4200       126
    62.4400       128
    62.4600       146
    62.4800       128
    62.5000       156
    62.5200       138
    62.5400       138
    62.5600       130
    62.5800       122
    62.6000       128
    62.6200       144
    62.6400       140
    62.6600       140
    62.6800       130
    62.7000       134
    62.7200       156
    62.7400       136
    62.7600       136
    62.7800       144
    62.8000       144
    62.8200       114
    62.8400       148
    62.8600       124
    62.8800       138
    62.9000       130
    62.9200       164
    62.9400       150
    62.9600       120
    62.9800       152
    63.0000       122
    63.0200       164
    63.0400       134
    63.0600       136
    63.0800       140
    63.1000       126
    63.1200       114
    63.1400       118
    63.1600       118
    63.1800       130
    63.2000       130
    63.2200       124
    63.2400       142
    63.2600       122
    63.2800       152
    63.3000       116
    63.3200       120
    63.3400       128
    63.3600       130
    63.3800       120
    63.4000       140
    63.4200       124
    63.4400       138
    63.4600       158
    63.4800       146
    63.5000       156
    63.5200       134
    63.5400       116
    63.5600       154
    63.5800       126
    63.6000       126
    63.6200       128
    63.6400       152
    63.6600       144
    63.6800       136
    63.7000       152
    63.7200       142
    63.7400       138
    63.7600       120
    63.7800       122
    63.8000       140
    63.8200       132
    63.8400       120
    63.8600       138
    63.8800       128
    63.9000       132
    63.9200       136
    63.9400       154
    63.9600       128
    63.9800       130
    64.0000       136
    64.0200       132
    64.0400       140
    64.0600       152
    64.0800       136
    64.1000       132
    64.1200       126
    64.1400       120
    64.1600       128
    64.1800       112
    64.2000       126
    64.2200       152
    64.2400       118
    64.2600       138
    64.2800       126
    64.3000       146
    64.3200       152
    64.3400       132
    64.3600       132
    64.3800       126
    64.4000       106
    64.4200       154
    64.4400       126
    64.4600       114
    64.4800       128
    64.5000       138
    64.5200       130
    64.5400       116
    64.5600       128
    64.5800       116
    64.6000       136
    64.6200       116
    64.6400       114
    64.6600       130
    64.6800       132
    64.7000       158
    64.7200       114
    64.7400       128
    64.7600       156
    64.7800       156
    64.8000       126
    64.8200       124
    64.8400       116
    64.8600       130
    64.8800       140
    64.9000       116
    64.9200       132
    64.9400       140
    64.9600       136
    64.9800       122
    65.0000       120
    65.0200       128
    65.0400       114
    65.0600       124
    65.0800       132
    65.1000       124
    65.1200       134
    65.1400       130
    65.1600       134
    65.1800       118
    65.2000       130
    65.2200       144
    65.2400       150
    65.2600       140
    65.2800       120
    65.3000       114
    65.3200       140
    65.3400       136
    65.3600       118
    65.3800       136
    65.4000       142
    65.4200       134
    65.4400       142
    65.4600       148
    65.4800       124
    65.5000       136
    65.5200       152
    65.5400       150
    65.5600       118
    65.5800       126
    65.6000       134
    65.6200       148
    65.6400       122
    65.6600       140
    65.6800       138
    65.7000       130
    65.7200       136
    65.7400       142
    65.7600       130
    65.7800       160
    65.8000       132
    65.8200       142
    65.8400       150
    65.8600       144
    65.8800       138
    65.9000       142
    65.9200       114
    65.9400       144
    65.9600       146
    65.9800       132
    66.0000       138
    66.0200       152
    66.0400       150
    66.0600       140
    66.0800       102
    66.1000       138
    66.1200       136
    66.1400       136
    66.1600       134
    66.1800       136
    66.2000       116
    66.2200       130
    66.2400       124
    66.2600       116
    66.2800       148
    66.3000       114
    66.3200       138
    66.3400       126
    66.3600       134
    66.3800       134
    66.4000       146
    66.4200       126
    66.4400       138
    66.4600       138
    66.4800       138
    66.5000       148
    66.5200       160
    66.5400       126
    66.5600       118
    66.5800       132
    66.6000       122
    66.6200       136
    66.6400       130
    66.6600       128
    66.6800       128
    66.7000        98
    66.7200       122
    66.7400       126
    66.7600       124
    66.7800       150
    66.8000       114
    66.8200       138
    66.8400       154
    66.8600       138
    66.8800       132
    66.9000       120
    66.9200       144
    66.9400       138
    66.9600       136
    66.9800       126
    67.0000       120
    67.0200       150
    67.0400       142
    67.0600       116
    67.0800       126
    67.1000       140
    67.1200       164
    67.1400       124
    67.1600       136
    67.1800       136
    67.2000       126
    67.2200       154
    67.2400       128
    67.2600       136
    67.2800       102
    67.3000       156
    67.3200       142
    67.3400       120
    67.3600       128
    67.3800       120
    67.4000       146
    67.4200       130
    67.4400       130
    67.4600       110
    67.4800       140
    67.5000       140
    67.5200       146
    67.5400       128
    67.5600       122
    67.5800       120
    67.6000       116
    67.6200       122
    67.6400       138
    67.6600       140
    67.6800       124
    67.7000       130
    67.7200       146
    67.7400       142
    67.7600       122
    67.7800       132
    67.8000       128
    67.8200       126
    67.8400       130
    67.8600       118
    67.8800       128
    67.9000       102
    67.9200       140
    67.9400       156
    67.9600       136
    67.9800       128
    68.0000       124
    68.0200       142
    68.0400       150
    68.0600       130
    68.0800       120
    68.1000       144
    68.1200       122
    68.1400       144
    68.1600       130
    68.1800       116
    68.2000       128
    68.2200       144
    68.2400       144
    68.2600       120
    68.2800       116
    68.3000       130
    68.3200       108
    68.3400       138
    68.3600       122
    68.3800       132
    68.4000       114
    68.4200       112
    68.4400       124
    68.4600       112
    68.4800       144
    68.5000       136
    68.5200       146
    68.5400       140
    68.5600       128
    68.5800       150
    68.6000       136
    68.6200       126
    68.6400       138
    68.6600       136
    68.6800       118
    68.7000       132
    68.7200       132
    68.7400       132
    68.7600       146
    68.7800       120
    68.8000       120
    68.8200       128
    68.8400       114
    68.8600       130
    68.8800       132
    68.9000       142
    68.9200       134
    68.9400       148
    68.9600       126
    68.9800       148
    69.0000       130
    69.0200       132
    69.0400       130
    69.0600       130
    69.0800       126
    69.1000       106
    69.1200       114
    69.1400       124
    69.1600       116
    69.1800       124
    69.2000       124
    69.2200       124
    69.2400       136
    69.2600       128
    69.2800       140
    69.3000       156
    69.3200       128
    69.3400       132
    69.3600       154
    69.3800       138
    69.4000       146
    69.4200       138
    69.4400       136
    69.4600       146
    69.4800       138
    69.5000       114
    69.5200       114
    69.5400       116
    69.5600       118
    69.5800       118
    69.6000       130
    69.6200       132
    69.6400       126
    69.6600       156
    69.6800       156
    69.7000       126
    69.7200       126
    69.7400       150
    69.7600       134
    69.7800       126
    69.8000       140
    69.8200       134
    69.8400       146
    69.8600       138
    69.8800       134
    69.9000       146
    69.9200       118
    69.9400       128
    69.9600       110
    69.9800       140
    70.0000       128
